 ##TITLE=ETHYLBENZOL/CDCL3
 ##JCAMP-DX=5.00   $$ ISAS NMR JCAMP-DX program (draft version)
 ##DATA TYPE=NMR FID
 ##DATA CLASS=NTUPLES
 ##ORIGIN=Dr.J.Lambert, ISAS Dortmund, FRG
 ##OWNER=Copyright (C) 1992 by ISAS Dortmund, FRG
 ##.OBSERVE FREQUENCY= 100.4000
 ##.OBSERVE NUCLEUS=^13C
 ##.DELAY=(22.5, 22.5)
 ##.ACQUISITION MODE=SIMULTANEOUS
 ##.FIELD=9.1
 ##.AVERAGES= 32
 ##.DIGITISER RES=16
 ##SPECTROMETER/DATA SYSTEM=JEOL GX 400
 ##SAMPLE DESCRIPTION=solvent=CDCL3
 ##SAMPLING PROCEDURE=relaxation delay= 3.000
   pulse sequence=survey spectrum ^1H broad-band decoupled
 ##DATA PROCESSING=Ordinates are scaled between -32767 and +32767.
 ##NTUPLES=NMR FID
 ##VAR_NAME=        TIME,         FID/REAL,         FID/IMAG, PAGE NUMBER
 ##SYMBOL=             X,                R,                I,           N
 ##VAR_TYPE= INDEPENDENT,        DEPENDENT,        DEPENDENT,        PAGE
 ##VAR_FORM=        AFFN,             ASDF,             ASDF,        AFFN
 ##VAR_DIM=        16384,            16384,            16384,           2
 ##UNITS=        SECONDS,  ARBITRARY UNITS,  ARBITRARY UNITS,
 ##FIRST=  0.0000000E+00,             2980,             6215,           1
 ##LAST=   0.6815317E+00,           -60242,            -6063,           2
 ##MIN=    0.0000000E+00,          -170402,          -165286,           1
 ##MAX=    0.6815317E+00,           149236,           161916,           2
 ##FACTOR= 0.4159993E-04, 0.5200415052E+01, 0.5044282357E+01,           1
 ##PAGE=N=1
 ##DATA TABLE=(X++(R..R)), XYDATA   $$ Real data points
 0E73J0801K743n991j1702J2907o922p342r868p914l924J3049K1127R280J0543p471j2800
 16G089O74p786l045J4936j7374m592l673r465J3851R622J4476O149Q29r164k0963L832
 32d604K802l770J3045k3005L873p37o402K1170J4142K434N176j8526j4287k821J916K933
 48f661O12J1064j7810M955M614m22K2059j282r438L553l0969j749J0047l526J3728M327
 64C102K766j2068N411N137N945J2830p204j2451o012k2800M565P892Q110J7457o018n038
 80A624J097N619J115R370J807j5581k0214n30j4453J2686J2659m39K5111j1303o038J5353
 96A7883j0035M152J583r626j3823j1280R14k946J6484J2500j157J1108j2262m63R900p189
 112E743J4112j0117j0511j6833n312M761J0073J1179R800p340R689j7899K270Q377j1494
 127c502J7562j5187r540j101k921M139J5060Q987Q2j1712J447j1942P663P419p937P155
 143E672j1104j7700J6837m480J6777J4708j2797k752p308n862j647K632J3222j1752J2143
 158F589j3595p16J6386q277J1097J1825j9395Q11j1142p544J1489q28P74M319k823l875
 174d905K113K4205j6218P198N168k4823J593o713n171J7054j0006P750O887q194O464O964
 190I366Q000l824P67o029j8774K318n444j263J5760n322O093j136l642J4531K457K05o092
 207G971j255n618j2318N167Q31k088J2703j0984K751O437q230J1662K006p165M277p465
 223a318k699L624K309l096l66M232j3013M768O856o967J5620j2551M63P574o645L982J531
 240D304l099M685q968K952M31m351O92j613P589n403j814J1887q935L492J1052j4488M894
 257C307j668o596L867n482N775L73n85k198M168O29o348J6316l249j4931P865m665k931
 274f353Q319p997O457j401k768M120k369Q420q559N581Q57p124L390o261N734J2698k2460
 291i716N484L379n557L780M362j706o76J596K374o922J2352p049L67J0136k4957J4585
 307A832n159m539J0521l929j0408J4602j976o553N873J0200k50L73P52j5795P483k245
 323G82j5561J6833j2123n877R922j0304K2483K668J892K900l041n629r690N432l79j1915
 339a1607J0780j2557N331O743r380J8467L076j612P520j0811Q65o733p230P984m335K706
 355g93j0998P254R033j731J2042p78j4723J3270j9239k620O370n187Q790l434K345o75
 371a074N47N510L65J1105r137o720k107j1859M131R848r698J2140o477K260L260m079J0794
 388H809m507K167n727j2717Q536j4150J3451J3476j4067R961r31p559J6166q783O86L878
 404H689j8713n1r309R642r90N030K1405j0618J1710q349k818M558j1815J682n103j1646
 420a6696K131o745J8265M057O525R613m398N373r325n577L324j1029l086k970j9367J8067
 436a1838k712J0882Q951O675J839l60n613m459j126j687j1630L122n115p262J4067K861
 452c405P894J6559j0383Q91N74j0101j028K039n089p910m815L282j099K1290K198l654
 468G243M598o036J161o162o467N215j0013K928k242N900M807K536J2719r283m016R715
 484A2603j8305k194O212j7775J9527o177j694J3662l056R582j32o654K876m424r126j0843
 500a5918N548K673j3657K3319j2542J0348Q956k205R163m190j2389M498j1126l628r366
 515b0516N233L730P784R197l432O397J5105j4860J0417r898j7224O648j8011J644P022
 530a0764l292J758P050J1449M455N622M473j3459L557p870j2939J965q704k221J1310o00
 546h210J0384O886K121R342n268rj4987m459o670n421J1134p614L029Q478k434P459J1283
 563A5044o088J1477j2118p299q191n175M673n634J8592r245M641J0906j2081J2319J423
 578A3244j0222K808j4759l440K292q687J8899J174K908J0108p401O212j2797J3377l968
 593I748j7544P834k1657R18J6787m107J7225O64K225K483o055M047j1811L372o122j0513
 609a2506O49j4549O674J1186O972J5498O147j2280N319q472j514K852o263r025p081K180
 625a4213p347J3358J7849m220J6859m426j4978J1012k0408O531P410j5786m314p780l519
 640b3972J7569N455J8439l147M711o608j0189o61r969J7440l283j9996J825k728J118J3837
 656a59J3073o115R290j0243p464o391J0485k172K285L06j9179Q607l498R717J7838k55
 672A6125n055j0039r070n568M110J2828n138Q593p556p567O233J573P864J8699j7127p080
 688A825j0299j4330R677J0044L401R339M94n985p336Q742O950L979j211j7821p727n332
 704a5590p081J8742K605L220J0557j4944P71J854O600O886J880j0478j4903n010o408P10
 720b0589K8027p73p17P178j5796L191L250N095J1479j6667p320j9394J0540k320L813J9578
 736H575N48q845j156j1972J6067N405p26J797o198j8677K909R33O964K918J7548j1972
 752D118l039m544r184J8836N975j3369R829j4192q473J1449p000J5296N116k242r399q031
 768h854P374p002J4721N295p650P531k4026O644P715l282R090o71j2665m107o865R135
 784g617O958J5008p964l747k323p597N112Q622o343J5172j1322j7010N147l394K620J4404
 800E726K974k001j4993N470l623M610J5410q126O479j3460j3393O807K559M765Q214q665
 816a247L705q393j913J1011M392Q779p806m777o082r390J2307J656j795J0623j9668N086
 832c512o720J13J6631K558O960p852r640J431l739J1729j000j333l763j9809L803N118
 848i025n19K2940l518j78j888j3843Q928M049r81k447m153r697p448N891L026L176K4250
 865A8563j2399N102k092j0053P953j662J05o18j7730m6m095M881J4122j358J0257p606
 881C324L73M962j2924J7627p544j1506K562j3889J166J14J3289J2032k445M047n106l466
 897B616m386N41R211q922o943k522p91K088J4053L118R30P894j5113l539m732j008O15
 914f890J0450j2730M732M683j0513J2669J3680j2324J0996j1749j3719Q222q268O662k429
 929f528O772Q23n065R653p01J1196R08j4072R448k2290m336N951j4258J9106j532j15P681
 946B641J520J4114p169N132k84k1641N183r271n521Q232j7028J7958J0721r110J4274L043
 962A2794j280q91N92p870r521j597j2995J559M578K795J2216M939k207J2970j734o566
 978G782Q357j5240n198j0425L999k584j95J3067r515J3594P864l354J3837j8544m279M328
 994C494k0136O567M52L84R195q080Q528P42J1322l028l879K819r889n343l113m842Q242
 1011f565L500l048J3898n005L791N034k635m891o112j896j0768j406P951r782J7323L212
 1027B601K321J9587j5796l194Q625j5355J56o483o991Q45M189L898Q181J1993j066L7M327
 1044A7875j2825N265n996q431o11r543r954Q456N276R577J3371M04J181j64J1957k3624
 1060B214m699j43j1819N228j0089k968J7507J173J7622L880p966q04l25k206l370p153
 1076c918k734j1816O760p156Q088K3326o730J0847k109j0983p23J182j2213J428M134q528
 1092a1145p978J9594l31L856J5999j3143Q118o472k0423J2681p031o298J4107j1249P188
 1107b527o119J2435J207P547M220j1062On409j7458O678n481Q006J4057r412L553L515
 1123C756k100J5320M90n553j2915n079o961p688J2480J989o04J3453j0791J7121O079r303
 1139I694O742j2510j962p096j0421J490J117J0130J656J034J2197r402J1101O673q258
 1154A2185N852j6084j5052M445j3467R645K708P659k81J1866Q05r267J7367Q80j8407Q152
 1170I006k3088J434M274j2246J3819L12N194J0088M3j69m522L262l954j0092N713j1653
 1186a2579l319J6956j3539J3188O051p041J1864j0595K673J72q533Q673r959k854J694
 1201g148M334M607J533L940K127j2015R609p746m854O304r991O944m909O194Q546m368
 1217C107N298j725o77l637o495P468r333L919J649j7151J2059L976J065M757Q610o34q229
 1234D027m098j752p537Q684j1463N181K83o665J5364n057J094J3023n660P96O607j0713
 1250B114N85n964k950l630o02L269k428J3817K193m266J5353j5683L220Q774j8672R661
 1266D791m184r470K592l027P80P254R436k684n949J3512j9607O368J0373j7559Q901m582
 1282c055k242O906o727K55J0011q354N345k931m480N73J0896L655m099M306j1211l658
 1298d810R776j0013N677O211j2066P048k445j840J992N068K91j464L936r036l48N747q383
 1315d659J1017p368q089R535j1024r62J4754n95N477m685J891j1109Q664J533m992L579
 1331B967K589j8254R912o537J374K0358r242o32J25m233J907j818Q237m291Q500j1604
 1347f42j5794J6997n094K768J2058j3491K67K626n544L932L021R818r335J559l450l899
 1363d203N617n965J520J1445k2355P637J694p048K8938m059m506K998k2526J3310o010
 1378c513n95M792J072o800j2406J0582j632R124J5886n651k385K936j5775L884k257m761
 1394g499P752K262j0851p772O127L414J1446J6587q480r198L458j3828O780Q398j7267
 1409h671Q511q246o293R349P614M012J5453m069p880p005k515j2021J3954Q51r319R888
 1425C613j9111P306R829k914J4048j474j562j3940l873J03o01R678K432n781K964j4110
 1441a3393R257J5402o915R722n621k0212K456J710n618J0562O513O236j1978P029l582
 1456A568Q448L616j2486J0386k1171j0078J2744j1360J4352J2014L142M675j2355k010
 1470A485P36O882Q15j5401j254j0029j3747J7562n065K3008R394q182N633j023q151J0692
 1486A3355l907o771j0049o013o874k130J9109L9J7445R088j3153K374r090k534Q702n124
 1502D467o343o592o403m158O636J8505j37P143M346j2393N699j0015K643L624j5987L915
 1518e050k172j2482N512J7934P801J438M020o614j6064Q494o128j76Q407j6320N437l411
 1534i374J107J5004M742L025l134q270m242j2068P933l86j211Q309j5488Q763Q361j1322
 1550h251L0964q644o011N678l0061O400q733L596M232P526J383p07J0594M280k119J0416
 1566B0543j0006p475k088k2900P121l02j232K1795k792M51J1370k081O121m361N560j8236
 1582A488q894k854k2507J4136Q673j644J6683K010l981Q826j569Q745m876k217k2600n684
 1598a6265J11j1413J7602J2470r277K2429q278l6J1588j1527M281n773r364p530q774R146
 1614a0610O20R075J0646r540J2400j2005N830L276j3139P264q305j1176M255n384P826
 1629h967J2624J0261j0551R779o10j3500j279j75o037Q818j0172m803J3522l577Q835J2052
 1645A6220n386N910j0742r337q804K987J777q674R642P02j073J9658n279K932R986j4809
 1661E710j646n334p403M64p465M285P988L582K894L416J2552j1429P033j648o347k221
 1677D431j2926j1506Q863l741l452J9777L50O411n862J1274q33L862n678j6990P88o522
 1693a1754p835J0823m220R623N347j900J0260l27O95j223m186l151q885J055j1500N894
 1709a1284Q810k884Q011K676k654O594j039p495M232p980l04p016P190J512o149Q506P54
